t,theta
0,-35.3
425,-32.6
850,-30.7
1275,-28.7
1700,-26.3
2125,-23.9
2550,-21.4
2975,-18.8
3400,-15.7
3825,-12.4
4250,-8.9
4675,-5.0
5100,-1.1
5525,3.7
5950,8.2
6375,12.7
6800,17.3
7225,21.4
7650,25.9
8075,29.4
8500,30.4
